% angle in degrees, sine value, cosine value
0.00 0.000 1.000
2.00 0.035 0.999
4.00 0.070 0.998
6.00 0.105 0.995
8.00 0.139 0.990
10.00 0.174 0.985
12.00 0.208 0.978
14.00 0.242 0.970
16.00 0.276 0.961
18.00 0.309 0.951
20.00 0.342 0.940
22.00 0.375 0.927
24.00 0.407 0.914
26.00 0.438 0.899
28.00 0.469 0.883
30.00 0.500 0.866
32.00 0.530 0.848
34.00 0.559 0.829
36.00 0.588 0.809
38.00 0.616 0.788
40.00 0.643 0.766
42.00 0.669 0.743
44.00 0.695 0.719
46.00 0.719 0.695
48.00 0.743 0.669
50.00 0.766 0.643
52.00 0.788 0.616
54.00 0.809 0.588
56.00 0.829 0.559
58.00 0.848 0.530
60.00 0.866 0.500
62.00 0.883 0.469
64.00 0.899 0.438
66.00 0.914 0.407
68.00 0.927 0.375
70.00 0.940 0.342
72.00 0.951 0.309
74.00 0.961 0.276
76.00 0.970 0.242
78.00 0.978 0.208
80.00 0.985 0.174
82.00 0.990 0.139
84.00 0.995 0.105
86.00 0.998 0.070
88.00 0.999 0.035
90.00 1.000 0.000
